# 1:time 2:Re 3:Im 4:phi 5:omega 6:E_dot_GW 7:E_GW 8:J_dot_GW 9:J_GW
0.0 0.0 -0.0 0.0 1.96349540849 0.0 0.0 -0.0 0.0
2.4 -9.05730160915e-23 -1.67920599536e-36 3.14159265359 0.654498469498 3.3325549548e-49 3.99906594576e-49 0.0 0.0
4.8 -1.04821213519e-13 -3.79590781837e-27 3.14159265359 -7.40148683083e-16 4.11568811122e-31 4.93882573347e-31 0.0 0.0
7.2 -1.12503350796e-10 -2.4772020948e-24 3.14159265359 2.59052039079e-15 4.39476289916e-25 5.27372535664e-25 0.0 0.0
9.6 -3.74159043976e-09 -8.78781510036e-23 3.14159265359 1.2952601954e-15 4.52951149558e-22 5.44596123553e-22 0.0 0.0
12.0 -3.09677192442e-08 -4.90071248789e-22 3.14159265359 1.20274161001e-15 2.90632271412e-20 3.59640100725e-20 0.0 0.0
14.4 -1.27739267563e-07 -2.28741102829e-21 3.14159265359 3.05311331772e-15 4.65591906479e-19 6.29550170416e-19 0.0 0.0
16.8 -3.53639706773e-07 -4.02570292917e-22 3.14159265359 2.86807614695e-15 3.37729293219e-18 5.24101197682e-18 0.0 0.0
19.2 -7.62514810334e-07 -3.217878396e-21 3.14159265359 1.94289029309e-15 1.49393495515e-17 2.72209829573e-17 0.0 0.0
21.6 -1.39087747095e-06 1.20976438991e-20 3.14159265359 3.05311331772e-15 4.75505676143e-17 1.02208883556e-16 0.0 0.0
24.0 -2.25538242005e-06 2.40129045338e-20 3.14159265359 2.22044604925e-15 1.20276709337e-16 3.03601615898e-16 0.0 0.0
26.4 -3.35538550958e-06 6.43853997794e-20 3.14159265359 1.75785312232e-15 2.57558143622e-16 7.57003439448e-16 0.0 0.0
28.8 -4.67716588252e-06 8.9440830086e-20 3.14159265359 1.2952601954e-15 4.87026731603e-16 1.65050528972e-15 0.0 0.0
31.2 -6.19802424619e-06 1.58798082125e-19 3.14159265359 9.25185853854e-17 8.37316749366e-16 3.23971746688e-15 0.0 0.0
33.6 -7.889606619e-06 1.53625715185e-19 3.14159265359 -9.25185853854e-16 1.33638364279e-15 5.84815793747e-15 0.0 0.0
36.0 -9.72036555808e-06 2.02198818991e-19 3.14159265359 -9.25185853854e-16 2.01045616296e-15 9.86436570438e-15 0.0 0.0
38.4 -1.16572860603e-05 1.77275548845e-19 3.14159265359 -1.11022302463e-15 2.88354509233e-15 1.57371672107e-14 0.0 0.0
40.8 -1.36670523204e-05 2.139702773e-19 3.14159265359 7.40148683083e-16 3.97731998622e-15 2.3970205305e-14 0.0 0.0
43.2 -1.57168158551e-05 2.9247089989e-19 3.14159265359 2.59052039079e-15 5.31120957308e-15 3.51164407761e-14 0.0 0.0
45.6 -1.77746911979e-05 4.98872547288e-19 3.14159265359 1.2952601954e-15 6.90255769462e-15 4.97729614974e-14 0.0 0.0
48.0 -1.98100705236e-05 4.97094675241e-19 3.14159265359 9.25185853854e-17 8.76680810765e-15 6.85762004601e-14 0.0 0.0
50.4 -2.17938203767e-05 6.25172709811e-19 3.14159265359 1.75785312232e-15 1.09176017003e-14 9.21974922296e-14 0.0 0.0
52.8 -2.36984044928e-05 7.90563414307e-19 3.14159265359 3.97829917157e-15 1.33668296749e-14 1.2133880988e-13 0.0 0.0
55.2 -2.54979619634e-05 1.21532849752e-18 3.14159265359 3.88578058619e-15 1.61245492842e-14 1.56728464631e-13 0.0 0.0
57.6 -2.71683582402e-05 1.41988889396e-18 3.14159265359 3.88578058619e-15 1.91989045927e-14 1.99116609283e-13 0.0 0.0
60.0 -2.86872202058e-05 1.90764171754e-18 3.14159265359 3.42318765926e-15 2.2595910491e-14 2.49270387384e-13 0.0 0.0
62.4 -3.00339620324e-05 2.05586636629e-18 3.14159265359 -1.85037170771e-16 2.6319292476e-14 3.07968630944e-13 0.0 0.0
64.8 -3.11898069567e-05 2.03936649984e-18 3.14159265359 6.47630097698e-16 3.03701514703e-14 3.7599596368e-13 0.0 0.0
67.2 -3.21378083814e-05 2.2957513061e-18 3.14159265359 2.03540887848e-15 3.47467435315e-14 4.54136237682e-13 0.0 0.0
69.6 -3.28628690738e-05 2.46318078684e-18 3.14159265359 1.48029736617e-15 3.94441736739e-14 5.43165338328e-13 0.0 0.0
72.0 -3.33517574963e-05 2.62355190333e-18 3.14159265359 3.70074341542e-16 4.44542604079e-14 6.43843459226e-13 0.0 0.0
74.4 -3.35931236442e-05 2.57835518599e-18 3.14159265359 3.23815048849e-15 4.97651604429e-14 7.56906764247e-13 0.0 0.0
76.8 -3.35775159983e-05 3.16733385473e-18 3.14159265359 3.70074341542e-15 5.53612463303e-14 8.83058452375e-13 0.0 0.0
79.2 -3.32973957563e-05 3.14906191437e-18 3.14159265359 2.12792746386e-15 6.12228610239e-14 1.0229593812e-12 0.0 0.0
81.6 -3.27471490395e-05 3.41905611773e-18 3.14159265359 4.16333634234e-15 6.73263233472e-14 1.17721840245e-12 0.0 0.0
84.0 -3.19230935582e-05 3.66238205803e-18 3.14159265359 4.71844785466e-15 7.36438876437e-14 1.34638265563e-12 0.0 0.0
86.4 -3.08234803296e-05 3.91211618414e-18 3.14159265359 4.4408920985e-15 8.01438346307e-14 1.53092792236e-12 0.0 0.0
88.8 -2.94484955148e-05 4.00284020082e-18 3.14159265359 8.32667268469e-15 8.67902920168e-14 1.73124887434e-12 0.0 0.0
91.2 -2.78002588752e-05 4.64974230464e-18 3.14159265359 8.69674702623e-15 9.35435951724e-14 1.94764953897e-12 0.0 0.0
93.6 -2.58828140839e-05 4.60618981607e-18 3.14159265359 3.1456319031e-15 1.00360428367e-13 2.18033436722e-12 0.0 0.0
96.0 -2.37021158612e-05 4.31342710406e-18 3.14159265359 7.86407975776e-15 1.07194118188e-13 2.42939982308e-12 0.0 0.0
98.4 -2.12660123943e-05 4.58184905405e-18 3.14159265359 8.78926561162e-15 1.13994994457e-13 2.69482675825e-12 0.0 0.0
100.8 -1.85842162497e-05 4.16647532818e-18 3.14159265359 6.84637531852e-15 1.20711130901e-13 2.97647410868e-12 0.0 0.0
103.2 -1.56682722504e-05 3.88857582936e-18 3.14159265359 2.67378711764e-14 1.27288364733e-13 3.27407350345e-12 0.0 0.0
105.6 -1.25315258109e-05 4.41761982046e-18 3.14159265359 3.30291349826e-14 1.33670933012e-13 3.58722466074e-12 0.0 0.0
108.0 -9.1890811516e-06 3.74047590362e-18 3.14159265359 5.98595247444e-14 1.39802167403e-13 3.91539238124e-12 0.0 0.0
110.4 -5.65775149686e-06 3.62085321152e-18 3.14159265359 2.98835030795e-13 1.45625149511e-13 4.25790516153e-12 0.0 0.0
112.8 -1.95600537954e-06 3.6019924182e-18 3.14159265359 0.654498469497 1.5108340467e-13 4.61395542655e-12 0.0 0.0
115.2 1.89610270721e-06 3.24741635138e-18 6.28318530718 0.654498469497 1.56122149241e-13 4.98260209124e-12 -0.0 0.0
117.6 5.87700417428e-06 3.19564950097e-18 6.28318530718 2.93839027184e-13 1.60688255672e-13 5.36277457714e-12 -0.0 0.0
120.0 9.96368213921e-06 3.01134104946e-18 6.28318530718 7.03141248929e-14 1.64730768678e-13 5.75327740636e-12 -0.0 0.0
122.4 1.41317408711e-05 2.91328237183e-18 6.28318530718 3.42318765926e-14 1.68201666612e-13 6.1527963287e-12 -0.0 0.0
124.8 1.83554950969e-05 2.53362587035e-18 6.28318530718 2.09092002971e-14 1.71057643109e-13 6.55990750037e-12 -0.0 0.0
127.2 2.26080735607e-05 2.38175060607e-18 6.28318530718 1.05471187339e-14 1.73260378517e-13 6.97308912632e-12 -0.0 0.0
129.6 2.68615171208e-05 2.34659173001e-18 6.28318530718 1.11022302463e-14 1.74776886814e-13 7.39073384472e-12 -0.0 0.0
132.0 3.10868782215e-05 1.64069881716e-18 6.28318530718 8.32667268469e-15 1.75579968156e-13 7.81116207068e-12 -0.0 0.0
134.4 3.52543289014e-05 1.6527372196e-18 6.28318530718 2.40548322002e-15 1.75649177121e-13 8.23263704501e-12 -0.0 0.0
136.8 3.93332778613e-05 1.59808495447e-18 6.28318530718 2.22044604925e-15 1.74971209932e-13 8.65338150948e-12 -0.0 0.0
139.2 4.32924926846e-05 1.56410711063e-18 6.28318530718 6.66133814775e-15 1.73540424691e-13 9.07159547102e-12 -0.0 0.0
141.6 4.71002214254e-05 4.21409219457e-19 6.28318530718 4.25585492773e-15 1.71358436116e-13 9.48547410399e-12 -0.0 0.0
144.0 5.07243054321e-05 7.93590203342e-19 6.28318530718 1.85037170771e-15 1.68434044432e-13 9.89322508065e-12 -0.0 0.0
146.4 5.41323002949e-05 2.3492818833e-20 6.28318530718 4.25585492773e-15 1.64784264579e-13 1.02930870515e-11 -0.0 0.0
148.8 5.72916398389e-05 -2.68992463502e-19 6.28318530718 1.85037170771e-15 1.60436845513e-13 1.06833523836e-11 -0.0 0.0
151.2 6.01698354072e-05 -5.43337770126e-19 6.28318530718 -7.40148683083e-16 1.55429568114e-13 1.10623920799e-11 -0.0 0.0
153.6 6.27346193232e-05 -5.04604293203e-20 6.28318530718 2.59052039079e-15 1.4980522409e-13 1.14286738306e-11 -0.0 0.0
156.0 6.49539831141e-05 -1.38587461219e-18 6.28318530718 3.1456319031e-15 1.43607551843e-13 1.17807691617e-11 -0.0 0.0
158.4 6.67961981491e-05 -1.04256020526e-18 6.28318530718 5.55111512313e-16 1.36884326014e-13 1.21173594151e-11 -0.0 0.0
160.8 6.82299826731e-05 -1.66229079937e-18 6.28318530718 2.59052039079e-15 1.29695847463e-13 1.24372556233e-11 -0.0 0.0
163.2 6.92248530129e-05 -1.95886138481e-18 6.28318530718 1.85037170771e-16 1.22118198498e-13 1.27394324784e-11 -0.0 0.0
165.6 6.97514550375e-05 -1.73616576623e-18 6.28318530718 -3.70074341542e-16 1.14234924506e-13 1.3023056226e-11 -0.0 0.0
168.0 6.97816845257e-05 -1.85125549812e-18 6.28318530718 2.40548322002e-15 1.06126966445e-13 1.32874904952e-11 -0.0 0.0
170.4 6.92886544561e-05 -2.55322037328e-18 6.28318530718 9.25185853854e-16 9.78704073496e-14 1.35322873437e-11 -0.0 0.0
172.8 6.82466985809e-05 -2.10150818813e-18 6.28318530718 -7.40148683083e-16 8.95408041116e-14 1.37571807975e-11 -0.0 0.0
175.2 6.66315017289e-05 -2.21520036289e-18 6.28318530718 1.2952601954e-15 8.12168537111e-14 1.39620899869e-11 -0.0 0.0
177.6 6.44203224739e-05 -2.37916309722e-18 6.28318530718 -1.85037170771e-16 7.29809914666e-14 1.41471274011e-11 -0.0 0.0
180.0 6.15922424608e-05 -1.99244430804e-18 6.28318530718 1.11022302463e-15 6.49171633389e-14 1.43126051869e-11 -0.0 0.0
182.4 5.8128370049e-05 -2.48989031018e-18 6.28318530718 1.11022302463e-15 5.71065799584e-14 1.44590336788e-11 -0.0 0.0
184.8 5.40119455094e-05 -2.02537184122e-18 6.28318530718 -1.2952601954e-15 4.96240745201e-14 1.45871104642e-11 -0.0 0.0
187.2 4.92284010003e-05 -1.81129178044e-18 6.28318530718 -7.40148683083e-16 4.25379044956e-14 1.4697704839e-11 -0.0 0.0
189.6 4.37654508743e-05 -1.49298364709e-18 6.28318530718 1.66533453694e-15 3.59100989431e-14 1.47918424431e-11 -0.0 0.0
192.0 3.76132027713e-05 -1.66363647761e-18 6.28318530718 3.33066907388e-15 2.97959972863e-14 1.48706897586e-11 -0.0 0.0
194.4 3.07642775361e-05 -1.51755877435e-18 6.28318530718 7.58652400161e-15 2.42436224381e-14 1.49355373023e-11 -0.0 0.0
196.8 2.32139423111e-05 -1.87752952452e-18 6.28318530718 5.7361522939e-15 1.92932453665e-14 1.49877815437e-11 -0.0 0.0
199.2 1.49602784202e-05 -1.15181501575e-18 6.28318530718 1.35077134663e-14 1.49767517862e-14 1.50289055402e-11 -0.0 0.0
201.6 6.00473023896e-06 -8.72880049691e-19 6.28318530718 0.654498469498 1.13173175703e-14 1.50604584235e-11 -0.0 0.0
204.0 -3.65117973082e-06 -5.34292974966e-19 9.42477796077 0.654498469498 8.32726306276e-15 1.50840319202e-11 0.0 0.0
206.4 -1.40090541444e-05 -3.1117203434e-19 9.42477796077 2.73855012741e-14 6.00118348187e-15 1.51012260561e-11 0.0 0.0
208.8 -2.50688808175e-05 -3.44778838425e-19 9.42477796077 7.40148683083e-16 4.32497597675e-15 1.51136174474e-11 0.0 0.0
211.2 -3.68286576118e-05 -6.80824949035e-19 9.42477796077 2.96059473233e-15 3.27648636459e-15 1.51227392022e-11 0.0 0.0
213.6 -4.92842471673e-05 5.85569587716e-20 9.42477796077 4.07081775696e-15 2.82436428761e-15 1.5130060223e-11 0.0 0.0
216.0 -6.24293216416e-05 1.20370444517e-19 9.42477796077 7.40148683083e-16 2.92793668114e-15 1.51369629842e-11 0.0 0.0
218.4 -7.62553912832e-05 3.35966897426e-19 9.42477796077 -7.40148683083e-16 3.53821599862e-15 1.51447223674e-11 0.0 0.0
220.8 -9.07519082679e-05 -1.77695001119e-19 9.42477796077 -1.11022302463e-15 4.59971900178e-15 1.51544878894e-11 0.0 0.0
223.2 -0.00010590635202 -2.32213288552e-19 9.42477796077 -7.40148683083e-16 6.05168253851e-15 1.51672695712e-11 0.0 0.0
225.6 -0.000121704097693 -5.92201569608e-19 9.42477796077 3.70074341542e-16 7.82669755334e-15 1.51839236274e-11 0.0 0.0
228.0 -0.000138128083529 1.21155723931e-19 9.42477796077 7.40148683083e-16 9.84893838473e-15 1.52051343905e-11 0.0 0.0
230.4 -0.000155158627986 -2.38462360217e-19 9.42477796077 3.70074341542e-16 1.2037038103e-14 1.52313975623e-11 0.0 0.0
232.8 -0.000172773709716 3.20315063172e-19 9.42477796077 1.11022302463e-15 1.43118036338e-14 1.52630161724e-11 0.0 0.0
235.2 -0.000190949467784 5.68123060653e-19 9.42477796077 0.0 1.65989745532e-14 1.53001091062e-11 0.0 0.0
237.6 -0.000209660150289 4.47334352381e-19 9.42477796077 0.0 1.88194273393e-14 1.53426111884e-11 0.0 0.0
240.0 -0.000228877283451 6.37485397181e-19 9.42477796077 1.11022302463e-15 2.08805279444e-14 1.53902511348e-11 0.0 0.0
242.4 -0.000248569078722 1.57879710784e-18 9.42477796077 3.70074341542e-16 2.26898216536e-14 1.54425355543e-11 0.0 0.0
244.8 -0.000268701235186 1.48136492593e-18 9.42477796077 0.0 2.41842639319e-14 1.5498784457e-11 0.0 0.0
247.2 -0.000289238628599 1.80235135777e-18 9.42477796077 3.70074341542e-16 2.53356462434e-14 1.55582083492e-11 0.0 0.0
249.6 -0.000310145675167 2.22497794867e-18 9.42477796077 -3.70074341542e-16 2.6108861232e-14 1.56199417582e-11 0.0 0.0
252.0 -0.000331383547351 1.87221506702e-18 9.42477796077 0.0 2.63981366837e-14 1.56829501557e-11 0.0 0.0
254.4 -0.000352904603134 2.47317212526e-18 9.42477796077 3.70074341542e-16 2.60003181002e-14 1.57458283014e-11 0.0 0.0
256.8 -0.000374648243287 2.56641021591e-18 9.42477796077 -3.70074341542e-16 2.47437803015e-14 1.58067212195e-11 0.0 0.0
259.2 -0.000396552416333 2.35554884081e-18 9.42477796077 -3.70074341542e-16 2.29893146436e-14 1.58640009334e-11 0.0 0.0
261.6 -0.000418608948458 2.35377717523e-18 9.42477796077 0.0 2.24588725729e-14 1.59185387581e-11 0.0 0.0
264.0 -0.000440967150983 2.4551907001e-18 9.42477796077 -3.70074341542e-16 2.66854931929e-14 1.5977511997e-11 0.0 0.0
266.4 -0.000463960472254 2.21451325855e-18 9.42477796077 0.0 3.93449592286e-14 1.60567485399e-11 0.0 0.0
268.8 -0.000487774543489 2.59703036255e-18 9.42477796077 0.0 5.18212708693e-14 1.6166148016e-11 0.0 0.0
271.2 -0.000511649013282 1.94525689637e-18 9.42477796077 -3.70074341542e-16 2.93852416106e-14 1.6263595831e-11 0.0 0.0
273.6 -0.000533175465676 1.73620095275e-18 9.42477796077 -3.70074341542e-16 9.60988827145e-15 1.63103899869e-11 0.0 0.0
276.0 -0.000548923652086 1.37673017521e-18 9.42477796077 0.0 2.61898854876e-13 1.66362004787e-11 0.0 0.0
278.4 -0.000557806261428 1.72239516088e-18 9.42477796077 3.70074341542e-16 6.68387820823e-13 1.77525444895e-11 0.0 0.0
280.8 -0.000566966167275 1.8489761716e-18 9.42477796077 0.0 1.3789317849e-13 1.87200816887e-11 0.0 0.0
283.2 -0.000593559110926 2.15224135145e-18 9.42477796077 0.0 1.46478181089e-12 2.06432916759e-11 0.0 0.0
285.6 -0.000651001043795 2.03210700171e-18 9.42477796077 -3.70074341542e-16 8.75490597421e-12 3.2906917018e-11 0.0 0.0
288.0 -0.000724459900132 1.39676980172e-18 9.42477796077 -3.70074341542e-16 7.50374631456e-12 5.24172997646e-11 0.0 0.0
290.4 -0.000768005473303 1.88126306644e-18 9.42477796077 3.70074341542e-16 2.42350786408e-13 6.17126162857e-11 0.0 0.0
292.8 -0.000743190497168 2.04675277389e-18 9.42477796077 3.70074341542e-16 2.21906218196e-11 8.8632183413e-11 0.0 0.0
295.2 -0.000665119614293 2.50976636225e-18 9.42477796077 3.70074341542e-16 3.77668288978e-11 1.60581124274e-10 0.0 0.0
297.6 -0.000602759791971 3.11643876474e-18 9.42477796077 3.70074341542e-16 8.15915011685e-12 2.15692299091e-10 0.0 0.0
300.0 -0.000622977075182 3.58272873364e-18 9.42477796077 -3.70074341542e-16 8.17616715764e-12 2.35294679821e-10 0.0 0.0
302.4 -0.000726057289049 2.77869839113e-18 9.42477796077 -7.40148683083e-16 3.75680411838e-11 2.90187729831e-10 0.0 0.0
304.8 -0.000841768953897 2.02484337942e-18 9.42477796077 -3.70074341542e-16 1.8844912017e-11 3.57883273671e-10 0.0 0.0
307.2 -0.000896283595373 1.80041597648e-18 9.42477796077 0.0 1.41193199429e-13 3.80666599931e-10 0.0 0.0
309.6 -0.000875448708101 2.01300962418e-18 9.42477796077 3.70074341542e-16 1.49310384105e-11 3.98753277863e-10 0.0 0.0
312.0 -0.00082334098772 2.20259980375e-18 9.42477796077 0.0 1.54014966499e-11 4.35152319936e-10 0.0 0.0
314.4 -0.000793382294138 2.01616401361e-18 9.42477796077 -3.70074341542e-16 2.66431480587e-12 4.56831293683e-10 0.0 0.0
316.8 -0.000802244326704 1.57047036193e-18 9.42477796077 0.0 6.85922386444e-14 4.60110782136e-10 0.0 0.0
319.2 -0.000828372238829 1.3820830501e-18 9.42477796077 -3.70074341542e-16 2.18647886511e-13 4.60455470286e-10 0.0 0.0
321.6 -0.000849512620713 9.49369058803e-19 9.42477796077 0.0 6.3071312517e-15 4.60725416307e-10 0.0 0.0
324.0 -0.000861483373917 1.57108114591e-18 9.42477796077 3.70074341542e-16 2.91185919525e-13 4.61082407968e-10 0.0 0.0
326.4 -0.000864858212601 1.31242231216e-18 9.42477796077 -3.70074341542e-16 1.01390903971e-12 4.62648521919e-10 0.0 0.0
328.8 -0.000862278839348 5.20035942289e-19 9.42477796077 -3.70074341542e-16 1.17828514505e-12 4.65279154941e-10 0.0 0.0
331.2 -0.000862881171888 7.34758925435e-19 9.42477796077 0.0 4.21319422466e-13 4.67198680422e-10 0.0 0.0
333.6 -0.000868956749725 7.42968499627e-19 9.42477796077 0.0 2.89698424613e-13 4.68051901839e-10 0.0 0.0
336.0 -0.00086968378707 4.1999151883e-19 9.42477796077 0.0 1.3789279032e-12 4.70054253432e-10 0.0 0.0
338.4 -0.000856669389005 5.32120399643e-19 9.42477796077 0.0 3.76901173332e-12 4.76231780996e-10 0.0 0.0
340.8 -0.000833773613233 1.10548910971e-21 9.42477796077 0.0 4.83755815178e-12 4.86559664858e-10 0.0 0.0
343.2 -0.000811248294364 -4.13859109084e-19 9.42477796077 0.0 3.40942028378e-12 4.96456038981e-10 0.0 0.0
345.6 -0.00079704259504 5.29550925626e-21 9.42477796077 0.0 1.51720072494e-12 5.02367984191e-10 0.0 0.0
348.0 -0.000790838343087 5.48583790985e-20 9.42477796077 0.0 8.21473862444e-13 5.05174393696e-10 0.0 0.0
350.4 -0.000785086162499 -6.42887773275e-19 9.42477796077 0.0 1.17067570585e-12 5.07564973178e-10 0.0 0.0
352.8 -0.000773043121412 -1.79964836166e-19 9.42477796077 0.0 2.25501104639e-12 5.11675797281e-10 0.0 0.0
355.2 -0.000753069112446 -8.34631133804e-19 9.42477796077 -3.70074341542e-16 3.60124931811e-12 5.18703309718e-10 0.0 0.0
357.6 -0.000726726989057 -1.04157216522e-18 9.42477796077 0.0 4.58521982796e-12 5.28527072693e-10 0.0 0.0
360.0 -0.000697528835936 -7.3963545675e-19 9.42477796077 3.70074341542e-16 4.55722497765e-12 5.3949800646e-10 0.0 0.0
362.4 -0.000669258255409 -7.7104582569e-19 9.42477796077 0.0 3.9394489281e-12 5.49694015147e-10 0.0 0.0
364.8 -0.000641516287327 -6.83366355961e-19 9.42477796077 -3.70074341542e-16 4.15081304213e-12 5.59402329511e-10 0.0 0.0
367.2 -0.000608793950733 -9.49520111279e-19 9.42477796077 -7.40148683083e-16 6.08568051725e-12 5.71686121782e-10 0.0 0.0
369.6 -0.000566341367694 -1.55456900777e-18 9.42477796077 0.0 9.07731021973e-12 5.89881710667e-10 0.0 0.0
372.0 -0.000515857630433 -1.16841373682e-18 9.42477796077 3.70074341542e-16 1.06010533287e-11 6.13495746925e-10 0.0 0.0
374.4 -0.000464416866405 -9.66977046392e-19 9.42477796077 -3.70074341542e-16 9.18022043021e-12 6.37233275436e-10 0.0 0.0
376.8 -0.000419090038494 -1.09011180316e-18 9.42477796077 -3.70074341542e-16 6.14887819835e-12 6.5562819379e-10 0.0 0.0
379.2 -0.000382851933451 -1.13583835704e-18 9.42477796077 0.0 3.74966473584e-12 6.67506445311e-10 0.0 0.0
381.6 -0.000350498050999 -1.35824480154e-18 9.42477796077 -7.40148683083e-16 4.36662652489e-12 6.77245994824e-10 0.0 0.0
384.0 -0.000299555133483 -2.38145306165e-18 9.42477796077 -1.48029736617e-15 1.85664682348e-11 7.04765708536e-10 0.0 0.0
386.4 -0.000179126918539 -2.10802471198e-18 9.42477796077 -0.654498469498 1.0986800782e-10 8.58887079801e-10 0.0 0.0
388.8 9.36629045998e-05 -2.46104884722e-18 6.28318530718 -0.654498469498 5.00698454019e-10 1.59156683401e-09 -0.0 0.0
391.2 0.000628668852304 -1.99801329652e-18 6.28318530718 -5.18104078158e-15 1.71890837292e-09 4.25509502633e-09 -0.0 0.0
393.6 0.0015644552988 -3.31593489306e-18 6.28318530718 -5.55111512313e-16 4.88310179795e-09 1.21775072314e-08 -0.0 0.0
396.0 0.00309076202706 -4.01400850386e-18 6.28318530718 -1.85037170771e-16 1.24460917877e-08 3.29725395342e-08 -0.0 0.0
398.4 0.00547194746792 -5.08174091181e-18 6.28318530718 0.0 2.91606293076e-08 8.29006048485e-08 -0.0 0.0
400.8 0.0090107224589 -7.00255651012e-18 6.28318530718 -1.85037170771e-16 6.07836858788e-08 1.90833783072e-07 -0.0 0.0
403.2 0.0138986466533 -3.88815374619e-18 6.28318530718 -1.85037170771e-16 1.06153300418e-07 3.91158166628e-07 -0.0 0.0
405.6 0.0199795575317 -6.30619166999e-18 6.28318530718 0.0 1.45258755263e-07 6.92852633446e-07 -0.0 0.0
408.0 0.0265513145897 -6.70882833081e-18 6.28318530718 0.0 1.42666418769e-07 1.03836284228e-06 -0.0 0.0
410.4 0.0323572135665 -1.21814652173e-17 6.28318530718 0.0 8.28382388192e-08 1.30896843139e-06 -0.0 0.0
